# Matter power spectrum P(k) at redshift z=0
# for k=1.04206e-05 to 1.68761 h/Mpc,
# number of wavenumbers equal to 605
#    1:k (h/Mpc)              2:P (Mpc/h)^3        
       1.042057218184e-05       4.833537106785e+01 
       2.326967391415e-05       1.050301546202e+02 
       3.616372993848e-05       1.608006158065e+02 
       4.913726104067e-05       2.162187363809e+02 
       6.222535610412e-05       2.716139621398e+02 
       7.546398344817e-05       3.272355711227e+02 
       8.889031207339e-05       3.832982843812e+02 
       1.025430470674e-04       4.400009695464e+02 
       1.164627834569e-04       4.975362787653e+02 
       1.306923828250e-04       5.560965248863e+02 
       1.452773770210e-04       6.158777756577e+02 
       1.602664032309e-04       6.770830635506e+02 
       1.757116745080e-04       7.399251727434e+02 
       1.916694895037e-04       8.046291016781e+02 
       2.082007845003e-04       8.714346676239e+02 
       2.253717298076e-04       9.405987467939e+02 
       2.432543709664e-04       1.012397799844e+03 
       2.619273128060e-04       1.087130358104e+03 
       2.814764409582e-04       1.165119479884e+03 
       3.019956706146e-04       1.246715032380e+03 
       3.235877057655e-04       1.332296386399e+03 
       3.463647834767e-04       1.422274163688e+03 
       3.704493665770e-04       1.517092111635e+03 
       3.959747341847e-04       1.617228372180e+03 
       4.230854028039e-04       1.723195494435e+03 
       4.519372917577e-04       1.835539821889e+03 
       4.826975267668e-04       1.954838538888e+03 
       5.155437569588e-04       2.081695666107e+03 
       5.506628474197e-04       2.216734434326e+03 
       5.882488072164e-04       2.360586905210e+03 
       6.284998287788e-04       2.513881137862e+03 
       6.716143563953e-04       2.677223332863e+03 
       7.177861758344e-04       2.851177667200e+03 
       7.671986258855e-04       3.036242971597e+03 
       8.200181700852e-04       3.232827783750e+03 
       8.763877161378e-04       3.441225637348e+03 
       9.364202031314e-04       3.661592261790e+03 
       1.000193056832e-03       3.893927844597e+03 
       1.067744107558e-03       4.138065273391e+03 
       1.139069454877e-03       4.393667981750e+03 
       1.214123555934e-03       4.660235633901e+03 
       1.292821545713e-03       4.937121030294e+03 
       1.375043524130e-03       5.223531277300e+03 
       1.460640325170e-03       5.518594550865e+03 
       1.549440159227e-03       5.821393793078e+03 
       1.641255504878e-03       6.130955505798e+03 
       1.735889705182e-03       6.446297811459e+03 
       1.833142862332e-03       6.766452825872e+03 
       1.932816784201e-03       7.090485015255e+03 
       2.034718884786e-03       7.417507740838e+03 
       2.138665057824e-03       7.746690475895e+03 
       2.244481621890e-03       8.077266464781e+03 
       2.352006478249e-03       8.408535124184e+03 
       2.461089637029e-03       8.739861041905e+03 
       2.571593261963e-03       9.070673254117e+03 
       2.683391367134e-03       9.400460265622e+03 
       2.796369277188e-03       9.728768765232e+03 
       2.910422939765e-03       1.005519668356e+04 
       3.025458157833e-03       1.037939106540e+04 
       3.141389791564e-03       1.070104086760e+04 
       3.258140964663e-03       1.101987592526e+04 
       3.375642298508e-03       1.133565929565e+04 
       3.493831188781e-03       1.164818718259e+04 
       3.612651132818e-03       1.195728190831e+04 
       3.732051111410e-03       1.226279296512e+04 
       3.851985025615e-03       1.256458998296e+04 
       3.972411187110e-03       1.286256474075e+04 
       4.093291859326e-03       1.315662345646e+04 
       4.214592845841e-03       1.344669285208e+04 
       4.336283122218e-03       1.373270708879e+04 
       4.458334507347e-03       1.401461987352e+04 
       4.580721370454e-03       1.429239021338e+04 
       4.703420370129e-03       1.456598220466e+04 
       4.826410221973e-03       1.483533798913e+04 
       4.949671491757e-03       1.510054023581e+04 
       5.073186411234e-03       1.536150276270e+04 
       5.196938714091e-03       1.561824471018e+04 
       5.320913489724e-03       1.587080739800e+04 
       5.445097052818e-03       1.611920360585e+04 
       5.569476826928e-03       1.636338518212e+04 
       5.694041240446e-03       1.660265258050e+04 
       5.818779633554e-03       1.683849306361e+04 
       5.943682174904e-03       1.707019324076e+04 
       6.068739786925e-03       1.729772877139e+04 
       6.193944078794e-03       1.752125728040e+04 
       6.319287286197e-03       1.774087908291e+04 
       6.444762217137e-03       1.795665469764e+04 
       6.570362203127e-03       1.816792796705e+04 
       6.696081055163e-03       1.837532605019e+04 
       6.821913023976e-03       1.857874571393e+04 
       6.947852764093e-03       1.877835543202e+04 
       7.073895301310e-03       1.897410727603e+04 
       7.200036003209e-03       1.916598630426e+04 
       7.326270552411e-03       1.935407308313e+04 
       7.452594922273e-03       1.953825052685e+04 
       7.579005354795e-03       1.971889736730e+04 
       7.705498340495e-03       1.989634294995e+04 
       7.832070600067e-03       2.006961549887e+04 
       7.958719067647e-03       2.023924940924e+04 
       8.085440875521e-03       2.040530432051e+04 
       8.212233340144e-03       2.056786800933e+04 
       8.339093949343e-03       2.072690807396e+04 
       8.466020350587e-03       2.088247159901e+04 
       8.593010340228e-03       2.103460990094e+04 
       8.720061853626e-03       2.118335788754e+04 
       8.847172956071e-03       2.132874625278e+04 
       8.974341834438e-03       2.147077394598e+04 
       9.101566789494e-03       2.160954973676e+04 
       9.228846228824e-03       2.174507923601e+04 
       9.356178660296e-03       2.187738520677e+04 
       9.483562686035e-03       2.200653461487e+04 
       9.610996996858e-03       2.213253794988e+04 
       9.738480367126e-03       2.225546662772e+04 
       9.866011649993e-03       2.237523082473e+04 
       9.993589772992e-03       2.249207754517e+04 
       1.012121373397e-02       2.260578031470e+04 
       1.024888259728e-02       2.271657002202e+04 
       1.037659549033e-02       2.282450225661e+04 
       1.050435160027e-02       2.292945190775e+04 
       1.063215017102e-02       2.303147593109e+04 
       1.075999050045e-02       2.313079020832e+04 
       1.088787193777e-02       2.322712435810e+04 
       1.101579388114e-02       2.332081275805e+04 
       1.114375577538e-02       2.341173681656e+04 
       1.127175710994e-02       2.349995311064e+04 
       1.139979741687e-02       2.358547615400e+04 
       1.152787626911e-02       2.366834679561e+04 
       1.165599327872e-02       2.374860449820e+04 
       1.178414809539e-02       2.382628489783e+04 
       1.191234040492e-02       2.390139436523e+04 
       1.204056992790e-02       2.397405888350e+04 
       1.216883641847e-02       2.404402459191e+04 
       1.229713966309e-02       2.411165402024e+04 
       1.242547947953e-02       2.417680854489e+04 
       1.255385571577e-02       2.423958963045e+04 
       1.268226824916e-02       2.429995908834e+04 
       1.281071698547e-02       2.435804171729e+04 
       1.293920185812e-02       2.441372450326e+04 
       1.306772282742e-02       2.446714417487e+04 
       1.319627987991e-02       2.451825085990e+04 
       1.332487302769e-02       2.456715747072e+04 
       1.345350230785e-02       2.461383508927e+04 
       1.358216778191e-02       2.465841386082e+04 
       1.371086953534e-02       2.470068369952e+04 
       1.383960767714e-02       2.474083092138e+04 
       1.396838233936e-02       2.477888025481e+04 
       1.409719367676e-02       2.481489068594e+04 
       1.422604186648e-02       2.484885535942e+04 
       1.435492710773e-02       2.488073754666e+04 
       1.448384962149e-02       2.491060431960e+04 
       1.461280965031e-02       2.493852699882e+04 
       1.474180745806e-02       2.496449376864e+04 
       1.487084332978e-02       2.498853145990e+04 
       1.499991757150e-02       2.501061285429e+04 
       1.512903051012e-02       2.503083398649e+04 
       1.525818249329e-02       2.504918350225e+04 
       1.538737388937e-02       2.506575136100e+04 
       1.551660508731e-02       2.508042307181e+04 
       1.564587649668e-02       2.509338742490e+04 
       1.577518854760e-02       2.510453165781e+04 
       1.590454169079e-02       2.511401290825e+04 
       1.603393639757e-02       2.512171321796e+04 
       1.616337315992e-02       2.512771505211e+04 
       1.629285249056e-02       2.513207809433e+04 
       1.642237492302e-02       2.513473087170e+04 
       1.655194101173e-02       2.513578086197e+04 
       1.668155133218e-02       2.513528688505e+04 
       1.681120648105e-02       2.513314809264e+04 
       1.694090707634e-02       2.512956210650e+04 
       1.707065375760e-02       2.512426766444e+04 
       1.720044718606e-02       2.511750744362e+04 
       1.733028804491e-02       2.510925281936e+04 
       1.746017703947e-02       2.509956730534e+04 
       1.759011489745e-02       2.508839657446e+04 
       1.772010236924e-02       2.507578757842e+04 
       1.785014022815e-02       2.506180511013e+04 
       1.798022927072e-02       2.504555404587e+04 
       1.811037031703e-02       2.502956475334e+04 
       1.824056421104e-02       2.501069286579e+04 
       1.837081182091e-02       2.499122297624e+04 
       1.850111403937e-02       2.497046994238e+04 
       1.863147178411e-02       2.494921743906e+04 
       1.876188599816e-02       2.492581106539e+04 
       1.889235765031e-02       2.490058613867e+04 
       1.902288773554e-02       2.487532826069e+04 
       1.915347727545e-02       2.484765927695e+04 
       1.928412731875e-02       2.481922215286e+04 
       1.941483894173e-02       2.478961307948e+04 
       1.954561324875e-02       2.476027645416e+04 
       1.967645137279e-02       2.472849582410e+04 
       1.980735447594e-02       2.469553786112e+04 
       1.993832375001e-02       2.466112264976e+04 
       2.006936041706e-02       2.462615195607e+04 
       2.020046573005e-02       2.458987299195e+04 
       2.033164097340e-02       2.455369283943e+04 
       2.046288746365e-02       2.451555099954e+04 
       2.059420655015e-02       2.447641333180e+04 
       2.072559961569e-02       2.443524352793e+04 
       2.085706807725e-02       2.439433596580e+04 
       2.098861338667e-02       2.435295593896e+04 
       2.112023703147e-02       2.430923668490e+04 
       2.125194053557e-02       2.426510536775e+04 
       2.138372546011e-02       2.422028068036e+04 
       2.151559340425e-02       2.417456164550e+04 
       2.164754600608e-02       2.412798225537e+04 
       2.177958494342e-02       2.408065252892e+04 
       2.191171193478e-02       2.403234757537e+04 
       2.204392874025e-02       2.398315273199e+04 
       2.217623716251e-02       2.393309945215e+04 
       2.230863904778e-02       2.388247478529e+04 
       2.244113628686e-02       2.383095454762e+04 
       2.257373081619e-02       2.377856117057e+04 
       2.270642461893e-02       2.372561557331e+04 
       2.283921972608e-02       2.367232982470e+04 
       2.297211821764e-02       2.361745034985e+04 
       2.310512222381e-02       2.356297388932e+04 
       2.323823392619e-02       2.350636432745e+04 
       2.337145555912e-02       2.344991185005e+04 
       2.350478941089e-02       2.339254633902e+04 
       2.363823782519e-02       2.333494848029e+04 
       2.377180320244e-02       2.327644433078e+04 
       2.390548800123e-02       2.321727513979e+04 
       2.403929473985e-02       2.315767453465e+04 
       2.417322599779e-02       2.309727216361e+04 
       2.430728441731e-02       2.303723540811e+04 
       2.444147270509e-02       2.297519253172e+04 
       2.457579363392e-02       2.291313244378e+04 
       2.471025004444e-02       2.285130510378e+04 
       2.484484484692e-02       2.278770863449e+04 
       2.497958102313e-02       2.272429764782e+04 
       2.511446162825e-02       2.266002320646e+04 
       2.524948979286e-02       2.259559504777e+04 
       2.538466872500e-02       2.253069133116e+04 
       2.552000171225e-02       2.246528311849e+04 
       2.565549212395e-02       2.239946050409e+04 
       2.579114341344e-02       2.233317074022e+04 
       2.592695912044e-02       2.226648976316e+04 
       2.606294287342e-02       2.219924588570e+04 
       2.619909839213e-02       2.213224452572e+04 
       2.633542949018e-02       2.206382068502e+04 
       2.647194007774e-02       2.199545198201e+04 
       2.660863416431e-02       2.192686100574e+04 
       2.674551586157e-02       2.185781209448e+04 
       2.688258938639e-02       2.178887274742e+04 
       2.701985906390e-02       2.171876301359e+04 
       2.715732933067e-02       2.164913394970e+04 
       2.729500473805e-02       2.157881837682e+04 
       2.743288995558e-02       2.150795146680e+04 
       2.757098977458e-02       2.143696251032e+04 
       2.770930911179e-02       2.136578628048e+04 
       2.784785301326e-02       2.129459055638e+04 
       2.798662665827e-02       2.122271182549e+04 
       2.812563536350e-02       2.115066330984e+04 
       2.826488458730e-02       2.107845851623e+04 
       2.840437993410e-02       2.100605537413e+04 
       2.854412715910e-02       2.093339733220e+04 
       2.868413217302e-02       2.086054856885e+04 
       2.882440104712e-02       2.078745881206e+04 
       2.896494001836e-02       2.071444737960e+04 
       2.910575549484e-02       2.064073481723e+04 
       2.924685406137e-02       2.056706922316e+04 
       2.938824248536e-02       2.049361389952e+04 
       2.952992772287e-02       2.041927067456e+04 
       2.967191692496e-02       2.034556198089e+04 
       2.981421744430e-02       2.027084069435e+04 
       2.995683684204e-02       2.019644636478e+04 
       3.009978289496e-02       2.012184047104e+04 
       3.024306360301e-02       2.004725828231e+04 
       3.038668719703e-02       1.997275142614e+04 
       3.053066214694e-02       1.989748156416e+04 
       3.067499717026e-02       1.982247903806e+04 
       3.081970124091e-02       1.974735309273e+04 
       3.096478359855e-02       1.967216588819e+04 
       3.111025375824e-02       1.959683112152e+04 
       3.125612152057e-02       1.952154874798e+04 
       3.140239698227e-02       1.944642473513e+04 
       3.154909054728e-02       1.937072460556e+04 
       3.169621293838e-02       1.929504267880e+04 
       3.184377520933e-02       1.921944967350e+04 
       3.199178875760e-02       1.914389747289e+04 
       3.214026533771e-02       1.906805898672e+04 
       3.228921707528e-02       1.899227398494e+04 
       3.243865648164e-02       1.891645513415e+04 
       3.258859646930e-02       1.884081406167e+04 
       3.273905036810e-02       1.876489648442e+04 
       3.289003194222e-02       1.868891625819e+04 
       3.304155540806e-02       1.861307827811e+04 
       3.319363545304e-02       1.853733159523e+04 
       3.334628725533e-02       1.846138287118e+04 
       3.349952650470e-02       1.838549332236e+04 
       3.365336942447e-02       1.830934052505e+04 
       3.380783279453e-02       1.823344310021e+04 
       3.396293397577e-02       1.815772063995e+04 
       3.411869093575e-02       1.808189698389e+04 
       3.427512227582e-02       1.800592105027e+04 
       3.443224725977e-02       1.792992838691e+04 
       3.459008584412e-02       1.785438326344e+04 
       3.474865871011e-02       1.777826701370e+04 
       3.490798729762e-02       1.770245600369e+04 
       3.506809384096e-02       1.762681759792e+04 
       3.522900140695e-02       1.755111379589e+04 
       3.539073393515e-02       1.747532678086e+04 
       3.555331628062e-02       1.739961745316e+04 
       3.571677425928e-02       1.732395045453e+04 
       3.588113469608e-02       1.724830595453e+04 
       3.604642547631e-02       1.717275303514e+04 
       3.621267560004e-02       1.709718695362e+04 
       3.637991524017e-02       1.702176327436e+04 
       3.654817580431e-02       1.694619090280e+04 
       3.671749000068e-02       1.687107738000e+04 
       3.688789190851e-02       1.679548592973e+04 
       3.705941705320e-02       1.672000981475e+04 
       3.723210248669e-02       1.664476184974e+04 
       3.740598687341e-02       1.656945027930e+04 
       3.758111058237e-02       1.649414574333e+04 
       3.775751578585e-02       1.641904795027e+04 
       3.793524656529e-02       1.634393631667e+04 
       3.811434902496e-02       1.626861247720e+04 
       3.829487141425e-02       1.619357628092e+04 
       3.847686425913e-02       1.611846619865e+04 
       3.866038050391e-02       1.604337848422e+04 
       3.884547566395e-02       1.596816591782e+04 
       3.903220799064e-02       1.589332372566e+04 
       3.922063864964e-02       1.581820910351e+04 
       3.941083191371e-02       1.574327555076e+04 
       3.960285537170e-02       1.566817382307e+04 
       3.979678015512e-02       1.559316026652e+04 
       3.999268118430e-02       1.551844631676e+04 
       4.019063743594e-02       1.544331620467e+04 
       4.039073223462e-02       1.536834743818e+04 
       4.059305357050e-02       1.529336642212e+04 
       4.079769444636e-02       1.521798810659e+04 
       4.100475325705e-02       1.514313938778e+04 
       4.121433420514e-02       1.506812121954e+04 
       4.142654775682e-02       1.499278880632e+04 
       4.164151114290e-02       1.491753902334e+04 
       4.185934891020e-02       1.484237760846e+04 
       4.208019352943e-02       1.476705844679e+04 
       4.230418606673e-02       1.469151831754e+04 
       4.253147692664e-02       1.461599853603e+04 
       4.276222667598e-02       1.454052138417e+04 
       4.299660695907e-02       1.446457557191e+04 
       4.323480151660e-02       1.438893991125e+04 
       4.347700732233e-02       1.431274210585e+04 
       4.372343585410e-02       1.423657164683e+04 
       4.397431451818e-02       1.416023253362e+04 
       4.422988824954e-02       1.408371399640e+04 
       4.449042131396e-02       1.400692734759e+04 
       4.475619934297e-02       1.393013670746e+04 
       4.502753163774e-02       1.385272372688e+04 
       4.530475378481e-02       1.377524347747e+04 
       4.558823063462e-02       1.369757660214e+04 
       4.587835970337e-02       1.361963432678e+04 
       4.617557507065e-02       1.354099564107e+04 
       4.648035185995e-02       1.346222793173e+04 
       4.679321140661e-02       1.338300776729e+04 
       4.711472724016e-02       1.330320236299e+04 
       4.744553203489e-02       1.322263523629e+04 
       4.778632571667e-02       1.314223793177e+04 
       4.813788495597e-02       1.306079121175e+04 
       4.850107433055e-02       1.297857395791e+04 
       4.887685950777e-02       1.289546530300e+04 
       4.926632288108e-02       1.281179148058e+04 
       4.967068220231e-02       1.272746371512e+04 
       5.009131288767e-02       1.264189553909e+04 
       5.052977484872e-02       1.255532758271e+04 
       5.098784492091e-02       1.246745699518e+04 
       5.146755624393e-02       1.237853591293e+04 
       5.197124630539e-02       1.228827700195e+04 
       5.250161580880e-02       1.219601718758e+04 
       5.306180108424e-02       1.210202729454e+04 
       5.365546343229e-02       1.200584082462e+04 
       5.428689956514e-02       1.190687914742e+04 
       5.496117811624e-02       1.180508757793e+04 
       5.568430785161e-02       1.169976664781e+04 
       5.646344332309e-02       1.159042181723e+04 
       5.730713239179e-02       1.147628383553e+04 
       5.822560560307e-02       1.135620567006e+04 
       5.923109656711e-02       1.122878507592e+04 
       6.033815956828e-02       1.109123720239e+04 
       6.156390651963e-02       1.094281429417e+04 
